time(s),x(m),y(m),z(m),theta(rad),v(m/s)
1742034932.12482,669.1413179389491,-66.5846180248188,-0.6399561376458925,0.024776406921611427,33.33300018310547
1742034932.1357012,669.7855406841759,-66.55200004413058,-0.6371094872028081,0.02478107367007218,33.33300018310547
1742034932.1577888,670.4297471930313,-66.51918189967478,-0.6354325115566063,0.02478550002218266,33.33300018310547
1742034932.179687,671.1630083296764,-66.54987738296043,-0.622590629373665,0.024789682187376205,33.33300018310547
1742034932.2016406,671.8072513656515,-66.51657142126753,-0.6081652019987972,0.024793630764200852,33.33300018310547
1742034932.2236207,672.4515167659872,-66.48236840400548,-0.5922894050007822,0.02479733641557348,33.33300018310547
1742034932.245689,673.0957995839382,-66.44657637075878,-0.5776070777059353,0.02480080555182887,33.33300018310547
1742034932.256806,673.8290950506498,-66.48070672592621,-0.545478257788338,0.024804040494167526,33.33300018310547
1742034932.2782626,674.4734193416162,-66.44304063644863,-0.5236354533662816,0.024807041131004112,33.33300018310547
1742034932.300582,675.1177852520493,-66.40291185966089,-0.5026034998048915,0.0248098104838487,33.33300018310547
1742034932.322796,675.7621614821613,-66.36102488570123,-0.48452543338667164,0.024812342664720127,33.33300018310547
1742034932.344888,676.49522724199,-66.41022421236389,-0.45133073875882046,0.02481464917207836,33.33300018310547
1742034932.355481,677.1395510920804,-66.36970055043199,-0.4309525058508522,0.02481672236207004,33.33300018310547
1742034932.3776386,677.7838708071412,-66.32846847991371,-0.4078557346526289,0.024818569754972306,33.33300018310547
1742034932.399691,678.4282016670288,-66.28581707303024,-0.3853157042699408,0.024820190520793664,33.33300018310547
1742034932.42193,679.1612925566684,-66.34208952509827,-0.3475679728112472,0.024821584669518726,33.33300018310547
1742034932.4440007,679.8056038751965,-66.29932016547937,-0.32956801286332205,0.024822753904856207,33.33300018310547
1742034932.465908,680.4498190184202,-66.25924991573717,-0.3156029719914356,0.024823700826124617,33.33300018310547
1742034932.4765933,681.093887531761,-66.22421183805574,-0.3026571933201697,0.024824423279957708,33.33300018310547
1742034932.4985087,681.8271549560155,-66.27964702342868,-0.27423040058351833,0.02482492580503473,33.33300018310547
1742034932.5208008,682.4712604665708,-66.24339116840898,-0.2643940520543241,0.02482520597844269,33.33300018310547
1742034932.5427668,683.115348100864,-66.20695853369763,-0.25956449324997033,0.024825265731295704,33.33300018310547
1742034932.5648313,683.7594845843955,-66.16739276250482,-0.26088712083388077,0.024825106482775694,33.33300018310547
1742034932.575625,684.4929401825757,-66.21321107802302,-0.2844464930063345,0.024824731825254145,33.33300018310547
1742034932.5976818,685.1370357864793,-66.17349601460072,-0.3039490295629286,0.024824142936716254,33.33300018310547
1742034932.619529,685.7811390902523,-66.13217227883347,-0.32472697470748013,0.024823342709251517,33.33300018310547
1742034932.6419115,686.42524379987,-66.09049311323827,-0.3450962498671116,0.02482233095017089,33.33300018310547
1742034932.6638143,687.1585349684034,-66.14576255474445,-0.3921445721150624,0.02482111294428055,33.33300018310547
1742034932.6854498,687.8026061317261,-66.10546555232474,-0.42307368235361464,0.024819685048673643,33.33300018310547
1742034932.6965442,688.4466673300362,-66.06500715151641,-0.4541248327951929,0.024818057905278232,33.33300018310547
1742034932.7192085,689.090749636172,-66.02433207462393,-0.48305860819313995,0.02481622515556786,33.33300018310547
1742034932.7410114,689.823968525941,-66.08019383186823,-0.5411327107811351,0.02481419431516743,33.33300018310547
1742034932.7627876,690.4680547522664,-66.03948899362854,-0.567683941168084,0.02481196575729752,33.33300018310547
1742034932.784646,691.112160635362,-65.99851020035139,-0.5943946740461189,0.02480954222187441,33.33300018310547
1742034932.7956662,691.7562774290527,-65.9573342172421,-0.6229236686174163,0.024806923701256714,33.33300018310547
1742034932.8179643,692.4893928573043,-66.01475699014186,-0.6807030823788293,0.024804113476632347,33.33300018310547
1742034932.8398435,693.1334520650296,-65.97689837599336,-0.7029172635917648,0.024801108040227685,33.33300018310547
1742034932.8616898,693.7774993394387,-65.94123178634402,-0.7185123915134041,0.024797913054671772,33.33300018310547
1742034932.883631,694.4215540126204,-65.90721799833562,-0.7300923704345751,0.024794529165329815,33.33300018310547
1742034932.9054785,695.1549180831097,-65.95364440091352,-0.7509276228154368,0.02479095614571379,33.33300018310547
1742034932.9167616,695.7990031744805,-65.91842007157908,-0.7563641411181582,0.0247871912038906,33.33300018310547
1742034932.9387913,696.4431510909133,-65.88106667194427,-0.7582234980401151,0.024783241252445326,33.33300018310547
1742034932.961168,697.087313217274,-65.84224131673136,-0.7595278894121761,0.024779105142508043,33.33300018310547
1742034932.9826171,697.8207672889354,-65.88566536796995,-0.7520760050851044,0.024774779707221015,33.33300018310547
1742034933.0046854,698.4649683617677,-65.84673992651307,-0.7462344548508012,0.02477027373816383,33.33300018310547
1742034933.0156815,699.1091924692911,-65.80686222045381,-0.741535202467627,0.0247655821680223,33.33300018310547
1742034933.0376043,699.7533572638959,-65.77041223418965,-0.7379910869369709,0.02476071094928499,33.33300018310547
1742034933.0599442,700.4866525852061,-65.82095461614838,-0.7247763929243888,0.024755660493863713,33.33300018310547
1742034933.081675,701.1308051930991,-65.78694254270718,-0.7145110281720831,0.024750432416684162,33.33300018310547
1742034933.103606,701.774935998405,-65.75465103864602,-0.7047988737923095,0.024745028327523386,33.33300018310547
1742034933.1256804,702.4190534652339,-65.7228830914661,-0.6952473463216139,0.024739449102091207,33.33300018310547
1742034933.1367433,703.1525873559366,-65.7577251314297,-0.6720529864764456,0.024733696872952182,33.33300018310547
1742034933.158889,703.7967632172238,-65.7231157458809,-0.6594291499566117,0.024727773151868346,33.33300018310547
1742034933.1803746,704.4409861959075,-65.6854047065124,-0.6489194086536009,0.024721679098088437,33.33300018310547
1742034933.2027407,705.0852328779421,-65.64571739708475,-0.6410029036973085,0.02471541565409377,33.33300018310547
1742034933.224746,705.818607072424,-65.68661688739613,-0.6293376763673627,0.024708982944170413,33.33300018310547
1742034933.235823,706.4628447540987,-65.64672895247082,-0.6235180598299125,0.024702382862423225,33.33300018310547
1742034933.2582247,707.1070928195812,-65.60629135633741,-0.6177024080056207,0.024695613768790148,33.33300018310547
1742034933.27936,707.7513457761388,-65.56564969905395,-0.6128958691700218,0.024688677299303574,33.33300018310547
1742034933.3016117,708.4845154105104,-65.61853629685606,-0.6081674881112188,0.02468157443543874,33.33300018310547
1742034933.3238533,709.1287587304967,-65.57753988732719,-0.604762137531414,0.024674307174090415,33.33300018310547
1742034933.3456984,709.7729721008856,-65.53979857144596,-0.5990168073746437,0.024666871079590813,33.33300018310547
1742034933.356776,710.4171547627234,-65.50499565054591,-0.5943093260555233,0.024659273318530586,33.33300018310547
1742034933.3789103,711.1503364432574,-65.55585379596363,-0.5922643005530884,0.024651507970207556,33.33300018310547
1742034933.4005787,711.7945078504204,-65.52042577230199,-0.5898902463019079,0.024643582700138805,33.33300018310547
1742034933.4225473,712.4386745108693,-65.48590790873779,-0.584785480929816,0.024635497129034692,33.33300018310547
1742034933.4447687,713.082849221269,-65.452288790241,-0.5793551900306889,0.024627250420968014,33.33300018310547
1742034933.4559448,713.816169631416,-65.49244860934749,-0.5780286619923539,0.024618839769342468,33.33300018310547
1742034933.4781084,714.4603177030211,-65.45871664517333,-0.5812741929003123,0.024610272151000853,33.33300018310547
1742034933.499693,715.1044692548705,-65.42531442683101,-0.5827687967566194,0.024601546632836313,33.33300018310547
1742034933.5216742,715.748642862322,-65.39147161563359,-0.5839020990486395,0.024592664081482293,33.33300018310547
1742034933.5436652,716.4819573085651,-65.4267283311631,-0.59277143624297,0.024583626948164572,33.33300018310547
1742034933.5657763,717.126139343705,-65.3904120913426,-0.5966039543199667,0.024574433084741554,33.33300018310547
1742034933.5766597,717.7703394270552,-65.35251255184741,-0.5970361070976961,0.02456509089378313,33.33300018310547
1742034933.5988505,718.4145697090651,-65.31316125564109,-0.5943463441265303,0.02455559255190644,33.33300018310547
1742034933.6208768,719.1478307384732,-65.35748606448168,-0.5904143356879706,0.024545946322135304,33.33300018310547
1742034933.642816,719.792011630522,-65.32157044438651,-0.5898297205341306,0.024536151991335006,33.33300018310547
1742034933.664901,720.4361857490933,-65.28761179889486,-0.584369181854319,0.024526207376953338,33.33300018310547
1742034933.675979,721.0803504538869,-65.25504038952786,-0.5777982270732752,0.02451611588011779,33.33300018310547
1742034933.69759,721.813675789062,-65.2956402907065,-0.565694272004995,0.02450587518175161,33.33300018310547
1742034933.7197893,722.4578434586249,-65.2620201241801,-0.5558998636097839,0.024495489003436136,33.33300018310547
1742034933.741766,723.1020329009355,-65.22697277247987,-0.5425434870918483,0.024484959337079684,33.33300018310547
1742034933.7638,723.746281876849,-65.18802429675426,-0.5300940996100157,0.02447428148597136,33.33300018310547
1742034933.785617,724.4796478627125,-65.22725993091623,-0.5222608396053651,0.02446345434856881,33.33300018310547
1742034933.796904,725.1238467609104,-65.18863674381373,-0.5218365093347509,0.02445248621444218,33.33300018310547
1742034933.818785,725.7680655772938,-65.14857056890166,-0.5207244818592712,0.024441371457136346,33.33300018310547
1742034933.8409462,726.4122963656393,-65.10804211638924,-0.5217642355218369,0.02443011388902841,33.33300018310547
1742034933.862797,727.1454762407435,-65.15935060055293,-0.5334675675433486,0.02441871352183525,33.33300018310547
1742034933.8846498,727.7896871691588,-65.11894864778364,-0.5390227254095047,0.024407170368438855,33.33300018310547
1742034933.8954082,728.4339039434105,-65.07794019075192,-0.5465793012830599,0.024395485675972398,33.33300018310547
1742034933.917813,729.0781105469246,-65.03638731542156,-0.556308390853807,0.02438366125133183,33.33300018310547
1742034933.9398847,729.8112097807507,-65.09430437658104,-0.5728439644779738,0.024371698051839544,33.33300018310547
1742034933.9619088,730.455394407552,-65.05727070285897,-0.5803578197078744,0.02435960067771356,33.33300018310547
1742034933.983576,731.099558281127,-65.02236403986075,-0.589367463607963,0.024347363659874485,33.33300018310547
1742034934.005593,731.7436919657903,-64.98900750763346,-0.5979405715072391,0.024334991170143205,33.33300018310547
1742034934.0166743,732.4769248332605,-65.03387651488235,-0.6028190120977356,0.024322487640157972,33.33300018310547
1742034934.038756,733.1211073266008,-64.99987467648653,-0.5999392318030775,0.024309854189005844,33.33300018310547
1742034934.0605717,733.7652917337638,-64.96673244102979,-0.5978686449179763,0.024297095130837734,33.33300018310547
1742034934.082426,734.4094664804377,-64.93420874567948,-0.598249184907275,0.02428420543979791,33.33300018310547
1742034934.1045017,735.1427682680377,-64.9705703064945,-0.5989714376227763,0.024271190684359845,33.33300018310547
1742034934.1155684,735.7869540043334,-64.93696727008786,-0.5980405780270822,0.024258055147741153,33.33300018310547
1742034934.137672,736.4311511549012,-64.90027236232406,-0.5976139183383838,0.02424479611859051,33.33300018310547
1742034934.1596682,737.0753735953043,-64.86156607190999,-0.5946970801982331,0.024231416920216062,33.33300018310547
1742034934.1814623,737.8086725712301,-64.90188746502504,-0.5890406152624906,0.024217919726063603,33.33300018310547
1742034934.2037187,738.4528917738082,-64.86313895096316,-0.5886457492479432,0.02420430728655161,33.33300018310547
1742034934.2255778,739.0971287631351,-64.82253401618308,-0.5862521770176038,0.02419058049062882,33.33300018310547
1742034934.2366354,739.7413768460793,-64.78049865671997,-0.5832588196420291,0.024176739975529743,33.33300018310547
1742034934.2587335,740.4745700204994,-64.83399482706248,-0.5776591021010008,0.02416278944370652,33.33300018310547
1742034934.280594,741.118806975522,-64.79334338736176,-0.5729822464226962,0.024148724648401093,33.33300018310547
1742034934.3026667,741.7630486995702,-64.75225709306146,-0.5665231336411284,0.02413454859981065,33.33300018310547
1742034934.3247948,742.4073011171345,-64.71065862521192,-0.560278714461811,0.024120258802325864,33.33300018310547
1742034934.3357742,743.1404886084681,-64.76846176515618,-0.5528527347807332,0.024105860100168672,33.33300018310547
1742034934.3577914,743.7847245783337,-64.72762443649893,-0.5493683991467183,0.02409135457699113,33.33300018310547
1742034934.3794913,744.428945951003,-64.68689697360857,-0.5468565624377638,0.02407673768067789,33.33300018310547
1742034934.4016092,745.0731615253327,-64.64600997812586,-0.5434124909272088,0.024062010756676203,33.33300018310547
1742034934.423631,745.8063844170864,-64.70411454547781,-0.5347413872180752,0.024047179056241846,33.33300018310547
1742034934.4457788,746.4505974048161,-64.664446114154,-0.5322204084005565,0.02403224048379675,33.33300018310547
1742034934.4568026,747.0947766181799,-64.62810720879733,-0.5278847735143141,0.024017196555265866,33.33300018310547
1742034934.479187,747.7389531673203,-64.59358820774851,-0.5199509169172306,0.02400204593889868,33.33300018310547
1742034934.5006263,748.4722868506633,-64.64403891421898,-0.5043877298267011,0.0239867908011685,33.33300018310547
1742034934.5226982,749.1164650037776,-64.6084390565943,-0.4993405640257079,0.023971431956271244,33.33300018310547
1742034934.5448375,749.7606301748525,-64.57154179991434,-0.49201659769592554,0.023955969633746743,33.33300018310547
1742034934.5558124,750.4047847599307,-64.53353939192304,-0.4807000726230245,0.023940404991311226,33.33300018310547
1742034934.578056,751.1382704517457,-64.57889850849972,-0.44801773721044647,0.023924738656098052,33.33300018310547
1742034934.5995586,751.7824530620089,-64.54034796322402,-0.43275934841581176,0.023908969745723374,33.33300018310547
1742034934.6216712,752.4266143659879,-64.50102097577025,-0.42069777498395233,0.02389310004040715,33.33300018310547
1742034934.6438005,753.0707066307002,-64.46626682934132,-0.4095361615136105,0.02387713010732985,33.33300018310547
1742034934.665698,753.8042747151648,-64.5161427132816,-0.375537000286695,0.023861059481955937,33.33300018310547
1742034934.6768906,754.4483925791105,-64.4821888534645,-0.35807175574704175,0.023844891324622836,33.33300018310547
1742034934.6985564,755.0924777281165,-64.44962120550115,-0.34312546814730893,0.023828622353147588,33.33300018310547
1742034934.7206888,755.736533033885,-64.41739533615588,-0.3294483532430934,0.02381225779094054,33.33300018310547
1742034934.7428145,756.4702692962653,-64.45451024587778,-0.30364050710712154,0.023795793832654552,33.33300018310547
1742034934.7646456,757.1143346536282,-64.42198977956077,-0.2978864321034883,0.023779236979356147,33.33300018310547
1742034934.7757297,757.7583852395232,-64.38992927498843,-0.3004701574413108,0.02376257971750538,33.33300018310547
1742034934.79768,758.4024067100625,-64.35811518552916,-0.3102933382960561,0.023745833544906114,33.33300018310547
1742034934.8196418,759.1360668919517,-64.39139364461403,-0.33711991869154445,0.023728988829135544,33.33300018310547
1742034934.8418581,759.7800833070559,-64.35916984890858,-0.3494356699913983,0.02371205554049899,33.33300018310547
1742034934.8635156,760.4241141262319,-64.32751791663816,-0.36548738179874907,0.023695030738967636,33.33300018310547
1742034934.885542,761.0681377736819,-64.29619473118271,-0.3896924673261509,0.023677916643921125,33.33300018310547
1742034934.8966074,761.8016969774916,-64.32879108736779,-0.451381361608688,0.02366071218486057,33.33300018310547
1742034934.9188778,762.445688120383,-64.29701604376797,-0.48127758775838114,0.023643418382023176,33.33300018310547
1742034934.9406607,763.0896890795166,-64.26248105501057,-0.5085935294333631,0.023626039700352153,33.33300018310547
1742034934.9627235,763.7337022532806,-64.2262193592363,-0.5325897768353217,0.023608577169324012,33.33300018310547
1742034934.984468,764.4672889313499,-64.26272950580355,-0.572870870809692,0.023591030581421583,33.33300018310547
1742034934.9953852,765.1113252158495,-64.22662847361451,-0.5909854243438847,0.023573402652719386,33.33300018310547
1742034935.0178404,765.7553607960397,-64.18979746659002,-0.6073604504327746,0.02355568840597462,33.33300018310547
1742034935.0398319,766.3993881365295,-64.15597178684996,-0.6192113847885062,0.023537894815385783,33.33300018310547
1742034935.0617988,767.1330352165793,-64.1999853929638,-0.6253457084070989,0.02352002357452937,33.33300018310547
1742034935.0836306,767.7771161491696,-64.16620269602018,-0.6253073436748083,0.023502069262913636,33.33300018310547
1742034935.1054971,768.421188986678,-64.13303807976237,-0.6261575911604326,0.023484038682755302,33.33300018310547
1742034935.1166801,769.0652578307262,-64.10016101048141,-0.6248279498681467,0.023465931664996255,33.33300018310547
1742034935.138699,769.7989583067628,-64.13806510039043,-0.6149105997341081,0.023447749712696024,33.33300018310547
1742034935.1606715,770.4430488781697,-64.10486896772161,-0.6120846102211924,0.023429493863850757,33.33300018310547
1742034935.1825726,771.0871335263621,-64.07209576920437,-0.607886870828472,0.023411159515839344,33.33300018310547
1742034935.204569,771.7312248006725,-64.03950653904612,-0.6005721900920257,0.023392753976611363,33.33300018310547
1742034935.2158148,772.4649357560595,-64.07583328253153,-0.5841315585068368,0.023374276192532878,33.33300018310547
1742034935.2376745,773.1090272289032,-64.0433148876249,-0.5759948068167274,0.0233557226026783,33.33300018310547
1742034935.259896,773.7531261784853,-64.01090214890328,-0.5635238985887726,0.023337095063695475,33.33300018310547
1742034935.2818174,774.397236472852,-63.9784392693892,-0.5499765968237208,0.023318397245144583,33.33300018310547
1742034935.303487,775.1309721279672,-64.0132149232669,-0.529532504251868,0.023299628092118427,33.33300018310547
1742034935.325358,775.7750667178977,-63.98024251191504,-0.5193549916780792,0.02328078453375273,33.33300018310547
1742034935.336653,776.4191636684955,-63.94695136347741,-0.5099335448850478,0.023261873816120646,33.33300018310547
1742034935.3588855,777.0632478837658,-63.91448683212364,-0.5033357309955834,0.023242890402098183,33.33300018310547
1742034935.3806632,777.7969659844248,-63.95092360220359,-0.4938345099977327,0.02322384036766912,33.33300018310547
1742034935.4026258,778.4410428077554,-63.919188230690374,-0.49228302045719696,0.023204720286577447,33.33300018310547
1742034935.4248776,779.0851126703203,-63.88763081586039,-0.49213266343292406,0.0231855346765936,33.33300018310547
1742034935.4357913,779.7291973663441,-63.85571990732477,-0.492476926436863,0.023166280910880334,33.33300018310547
1742034935.4576514,780.4628582212662,-63.88809881129863,-0.5012728817252429,0.023146960255487674,33.33300018310547
1742034935.4799137,781.106916909561,-63.85305235658664,-0.5032952879563087,0.023127576554987192,33.33300018310547
1742034935.5014398,781.7509883387486,-63.81571379546088,-0.502319976394218,0.023108129892258605,33.33300018310547
1742034935.5236201,782.3950511430194,-63.77674040453762,-0.5025063153804997,0.023088621601915944,33.33300018310547
1742034935.545611,783.1287635438861,-63.823090368024864,-0.5020190517091595,0.02306905179700034,33.33300018310547
1742034935.5570052,783.7728231951636,-63.788135295475406,-0.49648472644815256,0.02304942215799688,33.33300018310547
1742034935.578509,784.416883934389,-63.753813719097096,-0.48789638613140596,0.023029733051173416,33.33300018310547
1742034935.600728,785.0609474287132,-63.71949246476076,-0.47901773143943005,0.023009985908399033,33.33300018310547
