time(s),x(m),y(m),z(m),theta(rad),v(m/s)
1658132545.887839,-2737.876049259602,-8.375000077573262,8.890564549315256,0.0,22.22222137451172
1658132545.8882892,-2737.4982396771907,-8.375000052350908,8.902200147050605,0.0,22.22222137451172
1658132545.911328,-2737.0314050416555,-8.375000007869346,8.96273069917603,0.0,22.22222137451172
1658132545.9331348,-2736.564869523375,-8.374999970591693,9.017677518616438,0.0,22.22222137451172
1658132545.9548697,-2736.189733643623,-8.375000059140461,7.898494582677699,0.0,22.22222137451172
1658132545.9771948,-2735.7266399620066,-8.375000019617126,6.532071308429472,0.0,22.22222137451172
1658132545.9878829,-2735.2641145574853,-8.374999978691756,4.628331332308872,0.0,22.22222137451172
1658132546.0287344,-2734.8011120033902,-8.37499993578762,2.238991705269207,0.0,22.22222137451172
1658132546.0768528,-2734.4176797961286,-8.374999954094365,-3.6145042394068017,0.0,22.22222137451172
1658132546.0768929,-2733.945917095541,-8.374999902124786,-6.846177130880524,0.0,22.22222137451172
1658132546.0769198,-2733.470773720983,-8.374999851140343,-10.138215048422092,0.0,22.22222137451172
1658132546.1247835,-2732.992486119905,-8.374999801798042,-13.398704767870223,0.0,22.22222137451172
1658132546.124822,-2732.572606017167,-8.374999803314333,-19.508469965118188,0.0,22.22222137451172
1658132546.1311343,-2732.088141130135,-8.374999759663563,-22.23322752459182,0.0,22.22222137451172
1658132546.1527836,-2731.6040026443593,-8.37499972026385,-24.679774454864,0.0,22.22222137451172
1658132546.1967235,-2731.121155322957,-8.374999685512325,-26.820742251965584,0.0,22.22222137451172
1658132546.2409449,-2730.7054535473744,-8.374999710594427,-29.725154642611862,0.0,22.22222137451172
1658132546.241024,-2730.2425272760747,-8.374999702370959,-29.66285307063296,0.0,22.22222137451172
1658132546.2410698,-2729.790790087157,-8.374999710967588,-28.50595499004381,0.0,22.22222137451172
1658132546.2848191,-2729.34739345887,-8.3749997342046,-26.418107174711402,0.0,22.22222137451172
1658132546.2848735,-2729.012430205158,-8.374999807058282,-20.145954768271668,0.0,22.22222137451172
1658132546.295671,-2728.573841376613,-8.374999846495395,-16.295663199456655,0.0,22.22222137451172
1658132546.3176003,-2728.1313409302634,-8.374999892643576,-12.16493794758638,0.0,22.22222137451172
1658132546.3608243,-2727.683349783532,-8.37499994300429,-7.885319549641426,0.0,22.22222137451172
1658132546.3608806,-2727.309345481273,-8.375000001905534,0.6208056285421932,0.0,22.22222137451172
1658132546.4047363,-2726.842834868434,-8.375000047821842,4.6231191699080885,0.0,22.22222137451172
1658132546.4047863,-2726.371567584623,-8.375000091432085,8.329201951902565,0.0,22.22222137451172
1658132546.4487255,-2725.8969851722545,-8.375000131065725,11.660761600847403,0.0,22.22222137451172
1658132546.4487636,-2725.4852330072017,-8.375000149694957,17.016439211605377,0.0,22.22222137451172
1658132546.4926949,-2725.009500622022,-8.375000176468845,19.003759210548235,0.0,22.22222137451172
1658132546.492735,-2724.536676885423,-8.375000200744934,20.39978009356387,0.0,22.22222137451172
1658132546.5367594,-2724.069597391504,-8.375000217497995,20.93613362595021,0.0,22.22222137451172
1658132546.5368295,-2723.6923984421724,-8.375000169391024,19.47076458807433,0.0,22.22222137451172
1658132546.5848765,-2723.2404757459685,-8.375000163647536,17.64013276880475,0.0,22.22222137451172
1658132546.5849347,-2722.7906410453,-8.375000152386441,15.239936782079829,0.0,22.22222137451172
1658132546.5849752,-2722.3409086056713,-8.375000137058137,12.409679877222183,0.0,22.22222137451172
1658132546.6288435,-2721.970753772484,-8.375000049012527,5.985550270956265,0.0,22.22222137451172
1658132546.6288936,-2721.512447654619,-8.375000030090032,2.624316530828408,0.0,22.22222137451172
1658132546.636632,-2721.0505540753984,-8.375000012086442,-0.7015446286270662,0.0,22.22222137451172
1658132546.647973,-2720.5853267754883,-8.374999996146858,-3.906029408845473,0.0,22.22222137451172
1658132546.688747,-2720.179347303329,-8.374999914143293,-9.682888879866825,0.0,22.22222137451172
1658132546.7327585,-2719.7075436406526,-8.37065549778911,-12.161491803950774,0.0,22.22222137451172
1658132546.7328134,-2719.235551565519,-8.316380701783753,-14.324762675406308,0.0,22.22222137451172
1658132546.7767198,-2718.7641928446465,-8.223822537353174,-16.152066161712487,0.0,22.22222137451172
1658132546.7767715,-2718.354577421701,-8.351365932127203,-18.79810354096804,0.0,22.22222137451172
1658132546.7768004,-2717.887527540748,-8.263506910355206,-19.640504276731217,0.0,22.22222137451172
1658132546.8206975,-2717.4226378851768,-8.154938277338658,-20.189840013594576,0.0,22.22222137451172
1658132546.8207505,-2716.959881648782,-8.030914292558306,-20.47266723227216,0.0,22.22222137451172
1658132546.834722,-2716.565816819178,-8.326905958713603,-20.35078472640572,0.0,22.22222137451172
1658132546.8568733,-2716.1076711733613,-8.206072003781303,-20.00453860865046,0.0,22.22222137451172
1658132546.9007525,-2715.6508080228887,-8.07660680624323,-19.509618380194954,0.0,22.22222137451172
1658132546.9007936,-2715.1949310741766,-7.941035793899356,-18.898847756437625,0.0,22.22222137451172
1658132546.9447906,-2714.807400921836,-8.314503808578,-17.45951415356521,0.0,22.22222137451172
1658132546.9448445,-2714.352118557738,-8.18142397403681,-16.69080543143142,0.0,22.22222137451172
1658132546.9929676,-2713.896893379342,-8.072234803278644,-15.923461789789883,0.0,22.22222137451172
1658132546.9930582,-2713.442117321844,-8.041963160542652,-15.061025704930968,0.0,22.22222137451172
1658132546.9931011,-2713.055301702935,-8.337190278691232,-12.709765984971497,0.0,22.22222137451172
1658132547.0366597,-2712.6017512504754,-8.302451962075796,-11.335505242574053,0.0,22.22222137451172
1658132547.0366988,-2712.14793060405,-8.297084638422717,-9.898916532812136,0.0,22.22222137451172
1658132547.0551906,-2711.6936044350673,-8.313277719517204,-8.446536843949765,0.0,22.22222137451172
1658132547.0777037,-2711.301365441614,-8.367266023509444,-5.653924907258795,0.0,22.22222137451172
1658132547.12494,-2710.8446472117007,-8.37849148595023,-4.377471244579229,0.0,22.22222137451172
1658132547.125142,-2710.3873821747507,-8.401764485256326,-3.20991401872256,0.0,22.22222137451172
1658132547.1688597,-2709.92968669006,-8.433606089998037,-2.1665400063983906,0.0,22.22222137451172
1658132547.1689012,-2709.5301128711976,-8.380365080177537,-0.49020257407627776,0.0,22.22222137451172
1658132547.2129378,-2709.0714302135466,-8.409333395603781,0.1357574142186222,0.0,22.22222137451172
1658132547.212977,-2708.612771936631,-8.442937994804407,0.6226153114702239,0.0,22.22222137451172
1658132547.2130032,-2708.154206526179,-8.47974641404575,0.9766244278930314,0.0,22.22222137451172
1658132547.2568069,-2707.752381587825,-8.383486055028184,1.3273109402289045,0.0,22.22222137451172
1658132547.2568502,-2707.2939015881097,-8.41852744151597,1.2973908570017683,0.0,22.22222137451172
1658132547.2757542,-2706.835694412396,-8.45456331779179,1.0512982846944117,0.0,22.22222137451172
1658132547.2975793,-2706.3777226862167,-8.491490595347244,0.5929545809210091,0.0,22.22222137451172
1658132547.3448045,-2705.9741737350823,-8.384509898601845,-0.8289081088542903,0.0,22.22222137451172
1658132547.3448496,-2705.5156457789576,-8.421942477377328,-1.718724497656416,0.0,22.22222137451172
1658132547.3887937,-2705.057015588099,-8.460319703709281,-2.67870104563237,0.0,22.22222137451172
1658132547.38884,-2704.598262585504,-8.499629620100775,-3.674913744349142,0.0,22.22222137451172
1658132547.4329598,-2704.1897845178473,-8.388281578025698,-5.657964565560675,0.0,22.22222137451172
1658132547.433008,-2703.730208937874,-8.427876731850557,-6.595905398749413,0.0,22.22222137451172
1658132547.4330356,-2703.270748607717,-8.46820829358642,-7.472584821689254,0.0,22.22222137451172
1658132547.4768648,-2702.8115014222203,-8.509178204094013,-8.274052959410119,0.0,22.22222137451172
1658132547.476948,-2702.4005724677368,-8.392320069903397,-9.614875213759719,0.0,22.22222137451172
1658132547.4958873,-2701.9418123715895,-8.433059773888935,-10.14470018873171,0.0,22.22222137451172
1658132547.5177543,-2701.483570697278,-8.474176458192469,-10.579509608073467,0.0,22.22222137451172
1658132547.5607584,-2701.0258882442863,-8.514002738805594,-10.921522990529015,0.0,22.22222137451172
1658132547.5608742,-2700.6153441771285,-8.392929735654466,-11.50460375164002,0.0,22.22222137451172
1658132547.6048427,-2700.157279704922,-8.425868041569952,-11.944135392090358,0.0,22.22222137451172
1658132547.6049075,-2699.6989591521274,-8.454905337946528,-12.508472072976168,0.0,22.22222137451172
1658132547.6487842,-2699.240425385676,-8.48122294012221,-13.174268019270315,0.0,22.22222137451172
1658132547.6488476,-2698.8221971205658,-8.391988584875145,-14.702004829057932,0.0,22.22222137451172
1658132547.6929665,-2698.362452850286,-8.418938050511946,-15.51048589739047,0.0,22.22222137451172
1658132547.6930542,-2697.9028763185984,-8.444343559522608,-16.316030954728205,0.0,22.22222137451172
1658132547.7368588,-2697.44359763209,-8.468593287774839,-17.09761889484647,0.0,22.22222137451172
1658132547.736908,-2697.0214832560982,-8.391826606651533,-18.521457928333515,0.0,22.22222137451172
1658132547.7807822,-2696.5628208726366,-8.416094532259997,-19.138484647707482,0.0,22.22222137451172
1658132547.7808232,-2696.1049247580845,-8.439578592647862,-19.680915557967634,0.0,22.22222137451172
1658132547.7808502,-2695.6478614740554,-8.462234000215444,-20.144062287729994,0.0,22.22222137451172
1658132547.8248036,-2695.2314067484335,-8.390441273300183,-20.279803520762325,0.0,22.22222137451172
1658132547.8248627,-2694.7841972470674,-8.410367940292254,-19.311634385300763,0.0,22.22222137451172
1658132547.8373132,-2694.340944554108,-8.428017648344587,-17.67434522606389,0.0,22.22222137451172
1658132547.8489463,-2693.899801618578,-8.443670755885258,-15.496152637775733,0.0,22.22222137451172
1658132547.89275,-2693.509548076075,-8.383718906746449,-10.018305334087238,0.0,22.22222137451172
1658132547.9368603,-2693.065105927803,-8.399159579463612,-6.953784364951084,0.0,22.22222137451172
1658132547.9369195,-2692.617522432756,-8.413272120752428,-3.8153140129609553,0.0,22.22222137451172
1658132547.9812608,-2692.1665184566355,-8.426349848473354,-0.6947414328775668,0.0,22.22222137451172
1658132547.981307,-2691.7477981748416,-8.37709838327807,5.191146562572521,0.0,22.22222137451172
1658132547.981334,-2691.2883390966003,-8.390573098573999,7.830622168178618,0.0,22.22222137451172
1658132548.024844,-2690.827824476288,-8.403180773277219,10.108369890865864,0.0,22.22222137451172
1658132548.024905,-2690.368219787229,-8.415398209269666,11.756988067822961,0.0,22.22222137451172
1658132548.0368888,-2689.947156611927,-8.374529500923476,12.995767805460524,0.0,22.22222137451172
1658132548.0480266,-2689.49495333084,-8.387781008414263,12.64988358601827,0.0,22.22222137451172
1658132548.0887861,-2689.0450825376347,-8.401114180593973,11.766909200783456,0.0,22.22222137451172
1658132548.1328397,-2688.5967476590235,-8.414675423706084,10.437038234934288,0.0,22.22222137451172
1658132548.1328857,-2688.1889609950767,-8.376661445639819,6.819593963209113,0.0,22.22222137451172
1658132548.1808543,-2687.7396018998634,-8.39050856327729,4.715537015938445,0.0,22.22222137451172
1658132548.1809044,-2687.2890227949633,-8.404564866392993,2.525545233055734,0.0,22.22222137451172
1658132548.1809387,-2686.837033556835,-8.418814592543638,0.3216111129023408,0.0,22.22222137451172
1658132548.2286758,-2686.414090822728,-8.379424586047842,-3.890670806289307,0.0,22.22222137451172
1658132548.2287147,-2685.957933534389,-8.393554382997293,-5.805971769055696,0.0,22.22222137451172
1658132548.2347167,-2685.5012449014002,-8.4086350015141,-7.548635591363623,0.0,22.22222137451172
1658132548.256715,-2685.044428490717,-8.467393121143028,-9.100097057002028,0.0,22.22222137451172
1658132548.3007913,-2684.613206428531,-8.391376739991628,-11.759209720416255,0.0,22.22222137451172
1658132548.3008313,-2684.1562413860484,-8.456059643085252,-12.884465006501744,0.0,22.22222137451172
1658132548.3447978,-2683.6998529148414,-8.538970489731387,-13.866030503424819,0.0,22.22222137451172
1658132548.3448367,-2683.244203691146,-8.634961810254381,-14.70080365869614,0.0,22.22222137451172
1658132548.388751,-2682.814418154496,-8.408967788909145,-15.934038575589941,0.0,22.22222137451172
1658132548.3887923,-2682.3607747837686,-8.50231524307455,-16.342108757477163,0.0,22.22222137451172
1658132548.4327888,-2681.9081333032436,-8.60287391746252,-16.621896485126268,0.0,22.22222137451172
1658132548.4328463,-2681.456468453901,-8.70860074646983,-16.783851899211548,0.0,22.22222137451172
1658132548.4768326,-2681.031406178523,-8.42038264709921,-16.799550751303137,0.0,22.22222137451172
1658132548.4769006,-2680.58150579704,-8.523416860965986,-16.678960598742623,0.0,22.22222137451172
1658132548.521076,-2680.132609258372,-8.584895531797239,-16.40839502227798,0.0,22.22222137451172
1658132548.5211258,-2679.686566943273,-8.607583067899814,-15.631372997777977,0.0,22.22222137451172
1658132548.5211568,-2679.276068324804,-8.401953848300689,-12.541557590237396,0.0,22.22222137451172
1658132548.564776,-2678.8343772447633,-8.42862106404051,-10.428769731612826,0.0,22.22222137451172
1658132548.5648177,-2678.3918919206376,-8.436979729245266,-8.071591883699398,0.0,22.22222137451172
1658132548.5757635,-2677.9478224429163,-8.432197655629205,-5.563725783449667,0.0,22.22222137451172
1658132548.5977232,-2677.528049718818,-8.377725238083903,-0.4280726596227745,0.0,22.22222137451172
1658132548.6447518,-2677.077382310422,-8.376894407947322,2.060584490244676,0.0,22.22222137451172
1658132548.644791,-2676.6247649347765,-8.369479335836814,4.416271001209044,0.0,22.22222137451172
1658132548.6928055,-2676.1706190616055,-8.357805908634706,6.592926519546381,0.0,22.22222137451172
1658132548.6928477,-2675.73444276366,-8.368643751972986,10.278782812488618,0.0,22.22222137451172
1658132548.740789,-2675.278696687211,-8.359735653624956,11.748109479863563,0.0,22.22222137451172
1658132548.7408338,-2674.8233617306287,-8.336512261918749,12.957200938583831,0.0,22.22222137451172
1658132548.7408607,-2674.3694232814587,-8.247499781170163,13.813746914850705,0.0,22.22222137451172
1658132548.7848978,-2673.9438506683928,-8.35951198226935,13.549640524132531,0.0,22.22222137451172
1658132548.7849593,-2673.498781415749,-8.27609117255403,12.382157334296636,0.0,22.22222137451172
1658132548.7969105,-2673.0558717482663,-8.16800286750768,10.57630959947315,0.0,22.22222137451172
1658132548.8176317,-2672.6137170314387,-8.041119260469706,8.220792100398112,0.0,22.22222137451172
1658132548.860728,-2672.1940627321605,-8.347631039553722,2.357489210882994,0.0,22.22222137451172
1658132548.8607662,-2671.744987839764,-8.219325834639532,-0.9018599131578618,0.0,22.22222137451172
1658132548.904894,-2671.2925123118375,-8.07805815671937,-4.22924812611976,0.0,22.22222137451172
1658132548.9049633,-2670.8366689882564,-7.926194545987487,-7.527955941131229,0.0,22.22222137451172
1658132548.9528697,-2670.381058608078,-8.316394867811498,-13.716748802747862,0.0,22.22222137451172
1658132548.952913,-2669.917715794515,-8.16384324669338,-16.48237860931805,0.0,22.22222137451172
1658132548.9529395,-2669.45399088238,-8.004687318848434,-18.97002953200419,0.0,22.22222137451172
1658132548.9966679,-2668.9908039334614,-7.8406027579695525,-21.152227737019984,0.0,22.22222137451172
1658132548.9967117,-2668.5292564595093,-8.28522645428463,-24.54877267250295,0.0,22.22222137451172
1658132549.0157504,-2668.07165597233,-8.163945492278977,-25.681709812701154,0.0,22.22222137451172
1658132549.037848,-2667.618309100794,-8.09140790422401,-26.344815170937775,0.0,22.22222137451172
1658132549.0807478,-2667.16906578295,-8.053108845021551,-26.58875180733386,0.0,22.22222137451172
1658132549.0808055,-2666.7382993865103,-8.312419060709857,-26.007772459356133,0.0,22.22222137451172
1658132549.1286747,-2666.297972600547,-8.269925631297669,-25.282823923832407,0.0,22.22222137451172
1658132549.128713,-2665.8596291702765,-8.246283553759064,-24.341609961612832,0.0,22.22222137451172
1658132549.1727936,-2665.422613297198,-8.236448691371624,-23.238689180161483,0.0,22.22222137451172
1658132549.1728344,-2665.003863788754,-8.342739255436623,-20.75426962411134,0.0,22.22222137451172
1658132549.1728618,-2664.566843994107,-8.32979962752555,-19.46582572599186,0.0,22.22222137451172
1658132549.2167363,-2664.1294053085644,-8.325846957729787,-18.19995163706427,0.0,22.22222137451172
1658132549.2168176,-2663.6914686953805,-8.348820177866903,-16.95582773119804,0.0,22.22222137451172
1658132549.2357242,-2663.2671765794776,-8.36720201485924,-14.142505271574832,0.0,22.22222137451172
1658132549.25795,-2662.828660988452,-8.3884529199095,-12.65063418563031,0.0,22.22222137451172
1658132549.3006892,-2662.3895503530857,-8.419917574579877,-11.162711717310184,0.0,22.22222137451172
1658132549.3007276,-2661.9497163473325,-8.458292745816205,-9.716876513594983,0.0,22.22222137451172
1658132549.3446686,-2661.5166933599885,-8.381982007645393,-7.075631161759638,0.0,22.22222137451172
1658132549.3447065,-2661.0742090149115,-8.417362332868755,-5.92687413882079,0.0,22.22222137451172
1658132549.388655,-2660.6312051642412,-8.456281991274068,-4.913619155025306,0.0,22.22222137451172
1658132549.3886914,-2660.1878100516487,-8.497623873367807,-4.04441584995068,0.0,22.22222137451172
1658132549.4327476,-2659.7470865498585,-8.385889955681492,-2.7472683847029726,0.0,22.22222137451172
1658132549.4328115,-2659.3026754882703,-8.426336284956149,-2.3131222719792364,0.0,22.22222137451172
1658132549.4766767,-2658.8582714789236,-8.468248492621212,-2.011848132256788,0.0,22.22222137451172
1658132549.476717,-2658.413968332317,-8.51370851803345,-1.831676234350263,0.0,22.22222137451172
1658132549.5207672,-2657.9697011882117,-8.388409690434587,-2.243967500070744,0.0,22.22222137451172
1658132549.5208147,-2657.5244196611284,-8.439133045206875,-3.1691032542059268,0.0,22.22222137451172
1658132549.5208428,-2657.0784573528576,-8.494612264869687,-4.610023944923872,0.0,22.22222137451172
1658132549.568783,-2656.6311778206614,-8.55412644087858,-6.528607498639167,0.0,22.22222137451172
1658132549.56884,-2656.167963479606,-8.398560997932496,-11.427097000992351,0.0,22.22222137451172
1658132549.5768268,-2655.712063565502,-8.459102482397775,-14.198233638026595,0.0,22.22222137451172
1658132549.5880103,-2655.253538317275,-8.52263335299761,-17.051975951463564,0.0,22.22222137451172
1658132549.6327865,-2654.792774198699,-8.588631509846246,-19.89844619292979,0.0,22.22222137451172
1658132549.6328254,-2654.299201686499,-8.413136602161146,-25.28014617212097,0.0,22.22222137451172
1658132549.6808197,-2653.8346465006016,-8.478675851446324,-27.703058092487314,0.0,22.22222137451172
1658132549.680877,-2653.3710378812616,-8.545549270578999,-29.893150112580997,0.0,22.22222137451172
1658132549.7246995,-2652.909155554365,-8.606093888383365,-31.824303327934935,0.0,22.22222137451172
1658132549.7247384,-2652.4292890162346,-8.416738069144934,-34.075956996170724,0.0,22.22222137451172
1658132549.772692,-2651.991782296279,-8.45135043559018,-33.769718705326746,0.0,22.22222137451172
1658132549.7727482,-2651.565013664514,-8.471213434667472,-32.540333676996994,0.0,22.22222137451172
1658132549.816758,-2651.1462554454256,-8.48041013310593,-30.532749386756432,0.0,22.22222137451172
1658132549.8167968,-2650.747801166322,-8.39589127700842,-24.78475322535011,0.0,22.22222137451172
1658132549.8168223,-2650.3349378305056,-8.406638846212863,-21.340493145620837,0.0,22.22222137451172
1658132549.8608222,-2649.9193411361443,-8.411670942482942,-17.69556889098416,0.0,22.22222137451172
1658132549.8608816,-2649.4996574736174,-8.412753249277682,-13.97057261429986,0.0,22.22222137451172
1658132549.8739417,-2649.0720716657074,-8.379692603429984,-6.7128369351600465,0.0,22.22222137451172
1658132549.8956935,-2648.6378305358567,-8.383173936308873,-3.365109587129069,0.0,22.22222137451172
1658132549.9367156,-2648.199820676993,-8.385695822855773,-0.4471753361934666,0.0,22.22222137451172
